wavelength,flux
6500.002275000001,16430358700.0
6500.0064999999995,16430228500.0
6500.010725,16430098300.0
6500.01495,16429968100.0
6500.019174999999,16429837900.0
6500.0234,16429707700.0
6500.027625000001,16429577500.000002
6500.03185,16429447300.0
6500.036075,16429317200.0
6500.0403,16429187000.0
6500.044524999999,16429056800.0
6500.04875,16428926600.0
6500.052975,16428796500.0
6500.057201,16428666300.000002
6500.061426,16428536100.0
6500.065651,16428405900.0
6500.069876,16428275800.0
6500.074101,16427981300.0
6500.078326000001,16427851100.0
6500.082551,16427721000.0
6500.086776,16427590800.0
6500.091001,16427460700.0
6500.0952259999995,16427330500.0
6500.0994519999995,16427200300.0
6500.103676999999,16427070200.0
6500.107902,16426940000.000002
6500.112127,16426809899.999998
6500.116352,16426679800.0
6500.120577,16426549600.0
6500.124802,16426419500.0
6500.129028,16426125000.0
6500.133253,16425994900.0
6500.137478000001,16425864800.0
6500.141703,16425734600.0
6500.145928,16425604500.0
6500.150154000001,16425474400.0
6500.1543790000005,16425344200.0
6500.158603999999,16425049800.0
6500.162829,16424919700.0
6500.167054,16424789600.0
6500.17128,16424659500.0
6500.175504999999,16424529400.0
6500.17973,16424399300.000002
6500.183955,16424104900.0
6500.18818,16423974800.0
6500.192406,16423844700.000002
6500.196631,16423714599.999998
6500.200856,16423584500.0
6500.205082,16423290100.0
6500.209307,16423160000.000002
6500.213532,16423029900.0
6500.217757,16422735500.0
6500.221983,16422605400.000002
6500.226208,16422475400.0
6500.230433000001,16422345300.0
6500.234659,16422050900.0
6500.238884,16421920800.0
6500.243109000001,16421626500.0
6500.247334,16421496400.0
6500.251560000001,16421366300.0
6500.255785,16421072000.000002
6500.26001,16420942000.0
6500.264236000001,16420652600.0
6500.268461,16420527400.0
6500.272685999999,16420238000.0
6500.276912,16420112899.999998
6500.281137,16419823500.0
6500.285363000001,16419698400.0
6500.289588000001,16419409000.0
6500.293812999999,16419119600.0
6500.298039,16418994500.0
6500.302264,16418705100.0
6500.306490000001,16418415700.0
6500.3107150000005,16418126400.0
6500.314939999999,16417837000.0
6500.319166,16417547700.0
6500.323391,16417258300.0
6500.327617000001,16416968999.999998
6500.3318420000005,16416679600.0
6500.336066999999,16416390300.000002
6500.340293,16416101000.0
6500.344518000001,16415811700.0
6500.348744000001,16415522300.0
6500.3529690000005,16415068799.999998
6500.3571950000005,16414779500.0
6500.36142,16414325900.0
6500.365646,16413872400.0
6500.369871000001,16413583100.0
6500.374097,16413129600.0
6500.3783220000005,16412676100.000002
6500.382548,16412222500.0
6500.386773,16411769000.0
6500.390999,16411151300.0
6500.395224,16410697800.0
6500.39945,16410080100.0
6500.403675,16409462399.999998
6500.407901,16408844700.0
6500.412126,16408227100.0
6500.416352,16407609400.0
6500.420577,16406827500.0
6500.424803,16406045700.0
6500.429028,16405263800.0
6500.433254,16404317799.999998
6500.437479,16403535900.0
6500.441704999999,16402425700.0
6500.445931,16401479699.999998
6500.450156000001,16400369500.0
6500.454382,16399259300.0
6500.4586070000005,16397984900.0
6500.4628330000005,16396710500.0
6500.4670590000005,16395272000.0
6500.471284,16393669300.0
6500.47551,16392066500.0
6500.479735,16390299700.0
6500.483961,16388368600.0
6500.488187,16386437599.999998
6500.492412,16384178200.0
6500.496638,16381754600.0
6500.500864000001,16379166900.0
6500.505088999999,16376415000.0
6500.509315,16373334799.999998
6500.513541,16369926300.0
6500.517766000001,16366397800.000002
6500.521992,16362604999.999998
6500.526218,16358319500.0
6500.530443,16353705800.0
6500.534669,16348435200.0
6500.538895,16342836300.000002
6500.54312,16336580600.0
6500.547345999999,16329504000.0
6500.551572,16321770700.0
6500.555798,16313216400.0
6500.560023,16303512800.0
6500.564249,16292660000.000002
6500.568475,16280657800.0
6500.572701,16267013700.0
6500.576926,16251563600.0
6500.581152,16234307500.0
6500.585378,16214588500.0
6500.589604000001,16192242600.0
6500.5938289999995,16166777200.0
6500.598055,16137699700.000002
6500.602281,16104517500.0
6500.606507,16066409800.000002
6500.610732,16022719800.0
6500.614958,15972462400.0
6500.619183999999,15914652500.0
6500.623409999999,15847976600.0
6500.627636,15770957000.000002
6500.631861000001,15682280400.0
6500.636087000001,15579976499.999998
6500.640313,15462239300.0
6500.644539,15327262800.000002
6500.648765,15172748400.0
6500.652990999999,14996890200.0
6500.657216,14797718100.0
6500.6614420000005,14573754300.0
6500.665668000001,14324013800.0
6500.669894000001,14048496800.000002
6500.67412,13748024300.0
6500.678346,13424566500.0
6500.682572,13081571400.0
6500.686798000001,12723800400.0
6500.691024,12357656700.0
6500.695249,11990200200.0
6500.699475,11629804500.0
6500.703701,11284678500.0
6500.7079269999995,10963524000.0
6500.7121529999995,10674221800.000002
6500.716379,10423995700.0
6500.720605,10218920500.0
6500.7248309999995,10063593200.0
6500.729057,9961625600.0
6500.733283,9915316100.0
6500.7375090000005,9925321200.0
6500.7417350000005,9991805000.0
6500.7459610000005,10112961400.0
6500.750187,10286491499.999998
6500.754413,10508290800.0
6500.758639,10773269300.0
6500.762865000001,11074695600.0
6500.767091,11405345600.0
6500.771317,11756681700.0
6500.775543,12120494900.0
6500.779769,12488247700.0
6500.783995000001,12852059400.0
6500.788221000001,13204870300.0
6500.792447,13541262400.0
6500.796673,13856474600.0
6500.800899,14148044300.0
6500.805125000001,14414001299.999998
6500.809351,14654181600.0
6500.813577,14868749500.0
6500.817803,15059018300.0
6500.822029,15226630100.0
6500.826255,15373390800.0
6500.830481000001,15501434800.0
6500.834707,15612732300.0
6500.838933,15709253500.0
6500.843159,15792804500.0
6500.847386,15865027000.0
6500.851612,15927562800.0
6500.8558379999995,15981397100.000002
6500.8600639999995,16027843300.0
6500.8642899999995,16068050700.0
6500.868516,16102511700.0
6500.8727420000005,16132375800.0
6500.8769680000005,16157807000.0
6500.881194,16179790400.0
6500.885421000001,16198326100.0
6500.889647,16214070700.0
6500.893873,16227188500.0
6500.898099,16238007800.0
6500.902324999999,16246856999.999998
6500.906551,16253736000.0
6500.9107779999995,16258809100.0
6500.9150039999995,16262404600.0
6500.9192299999995,16264358400.0
6500.923456,16264998700.0
6500.9276820000005,16264325700.0
6500.931909,16262503400.0
6500.936135,16259531900.0
6500.940361000001,16255411099.999998
6500.944587,16250633699.999998
6500.948813999999,16244871299.999998
6500.95304,16238452100.0
6500.957266,16231376300.0
6500.961492,16223972200.0
6500.965719,16216075500.0
6500.969945000001,16208014700.0
6500.974171,16199953900.0
6500.978397,16192057300.0
6500.982623999999,16184160700.000002
6500.98685,16176756699.999998
6500.991076,16169845100.0
6500.995302,16163754500.0
6500.999529,16158156400.000002
6501.003755000001,16153543300.0
6501.007981000001,16149915300.0
6501.012208,16147272300.0
6501.016433999999,16145778500.0
6501.02066,16145433900.0
6501.024887,16146238500.0
6501.029113,16148356500.0
6501.0333390000005,16151459500.0
6501.037566,16155711700.0
6501.041792,16160948900.0
6501.046017999999,16167171100.0
6501.050245,16174214100.0
6501.0544709999995,16182078000.0
6501.0586969999995,16190598600.0
6501.062924,16199611599.999998
6501.06715,16209117099.999998
6501.071376999999,16218786800.0
6501.075603,16228620700.0
6501.079829,16238454500.0
6501.084056,16248288300.0
6501.088282,16257793700.0
6501.092509,16267134900.0
6501.096735,16275983700.0
6501.100961,16284504000.0
6501.105188,16292367699.999998
6501.1094140000005,16299738900.0
6501.113641,16306453400.0
6501.117867000001,16312511100.0
6501.122094,16318076399.999998
6501.126319999999,16322820900.0
6501.130547000001,16326908600.0
6501.134773,16330339700.0
6501.138999999999,16333278200.000002
6501.143226,16335396000.0
6501.147453,16337021200.0
6501.151679,16337989799.999998
6501.155906,16338301600.0
6501.160132,16338121000.000002
6501.164359,16337447900.0
6501.168585,16336118200.0
6501.172812,16334295900.0
6501.177038,16331981100.0
6501.181265,16329009699.999998
6501.185491,16325545800.0
6501.1897180000005,16321589500.0
6501.193944000001,16316976400.0
6501.198171,16311706700.0
6501.202396999999,16305780400.0
6501.206624,16299197400.0
6501.210851,16291957800.0
6501.215077000001,16283897400.0
6501.219304,16274852000.0
6501.223529999999,16264985800.0
6501.227757000001,16253970499.999998
6501.231984,16241806100.0
6501.236209999999,16228328400.0
6501.240437,16213537400.0
6501.2446629999995,16197104800.0
6501.248890000001,16178866500.0
6501.253117,16158494100.0
6501.257342999999,16135987600.0
6501.261570000001,16111018700.0
6501.265797,16082930900.0
6501.270022999999,16051724000.0
6501.27425,16016905600.0
6501.2784759999995,15977819100.0
6501.282703000001,15933972000.0
6501.28693,15884707600.0
6501.291155999999,15829369499.999998
6501.295383000001,15767136600.0
6501.29961,15697024300.0
6501.303837,15618047400.0
6501.308063,15529056800.0
6501.31229,15428575300.0
6501.316517,15315289500.0
6501.320743,15187886200.0
6501.32497,15044395500.0
6501.329197,14883340100.0
6501.3334239999995,14702750100.0
6501.33765,14501148000.0
6501.341877,14276728299.999998
6501.346104,14028013600.0
6501.350331,13753854800.0
6501.354557,13453595400.0
6501.358784,13126907100.0
6501.3630109999995,12774610800.0
6501.367238000001,12397855800.0
6501.371464,11999268500.0
6501.375690999999,11581803900.0
6501.3799180000005,11149894300.0
6501.384145,10708792800.0
6501.388372,10264409000.000002
6501.392598,9822980900.0
6501.396825000001,9391403200.0
6501.401052,8976241900.0
6501.4052790000005,8583570900.0
6501.409506,8219299700.0
6501.413732,7888352900.0
6501.417959,7594834300.0
6501.422186,7342191100.0
6501.426413,7133049600.0
6501.43064,6968887000.0
6501.434867,6851180800.0
6501.439093999999,6780587200.0
6501.443319999999,6757434500.0
6501.447547,6781886800.0
6501.451773999999,6853943800.0
6501.4560010000005,6973113000.0
6501.460228,7138573400.0
6501.464455,7349011700.0
6501.468682,7602950300.0
6501.472909,7897598500.0
6501.4771359999995,8229509000.0
6501.481363000001,8594742000.0
6501.48559,8988044400.0
6501.489815999999,9403835000.0
6501.494043000001,9835875900.0
6501.49827,10277436700.0
6501.502497,10721787300.0
6501.506724,11162689800.0
6501.510951,11594070600.0
6501.515178,12011005100.0
6501.519405,12409225500.0
6501.523631999999,12785120400.0
6501.527859,13136720200.0
6501.532085999999,13462547400.0
6501.5363130000005,13761945700.0
6501.54054,14035407499.999998
6501.544767,14283261200.0
6501.548994,14507148400.0
6501.553221,14708054100.0
6501.557448,14887948100.0
6501.561675000001,15048472100.000002
6501.565902,15191431600.0
6501.570129000001,15318468300.000002
6501.574356,15431387900.0
6501.578583,15531503600.0
6501.58281,15620128700.0
6501.587037,15698904600.000002
6501.591264999999,15768816300.0
6501.595492,15830848700.0
6501.599719,15885986700.000002
6501.603946,15935051200.000002
6501.608173,15978862800.0
6501.6124,16017749800.0
6501.616626999999,16052697199.999998
6501.620854000001,16083869200.0
6501.625081,16111758100.0
6501.6293080000005,16136856500.0
6501.633535,16159492499.999998
6501.637763,16179830500.0
6501.64199,16198198700.0
6501.6462169999995,16214761300.0
6501.650444000001,16229682299.999998
6501.654671,16243290100.0
6501.658898,16255748900.0
6501.663125,16267058600.0
6501.667353000001,16277219300.0
6501.67158,16286559200.0
6501.6758070000005,16295242600.0
6501.680034,16303105100.0
6501.684261,16310147000.0
6501.688488999999,16316860500.000002
6501.692716,16322917500.0
6501.696942999999,16328482000.0
6501.70117,16333718200.0
6501.705397,16338461900.0
6501.7096249999995,16342877300.0
6501.713852000001,16346800399.999998
6501.718079,16350723400.0
6501.722306000001,16354153900.0
6501.726533999999,16357420300.0
6501.730761,16360358500.0
6501.734987999999,16363296600.0
6501.739215,16365906400.000002
6501.743443,16368352000.0
6501.74767,16370633600.0
6501.751897,16372750900.0
6501.7561239999995,16374704200.0
6501.760352,16376493299.999998
6501.764579,16378282300.0
6501.768806,16379907300.0
6501.773034,16381368100.0
6501.777260999999,16382828800.0
6501.7814880000005,16384289600.0
6501.785715,16385422100.0
6501.789943,16386718700.0
6501.794169999999,16387851200.0
6501.7983970000005,16388819600.0
6501.802625,16389787900.0
6501.806852,16390756300.0
6501.8110799999995,16391724600.0
6501.815307000001,16392528800.0
6501.819534,16393333000.000002
6501.823762,16393973100.000002
6501.827988999999,16394777300.0
6501.832216000001,16395417300.0
6501.8364440000005,16396057400.0
6501.840671,16396533300.0
6501.844899,16397173300.0
6501.849125999999,16397649200.0
6501.853353,16398125100.0
6501.857581,16398601000.0
6501.861808,16399076900.0
6501.866036,16399552799.999998
6501.870263,16399864600.0
6501.87449,16400340500.0
6501.878718,16400652300.0
6501.882944999999,16400964000.0
6501.887173,16401439900.000002
6501.8913999999995,16401751700.0
6501.895628,16402063500.0
6501.899855000001,16402211100.0
6501.904082999999,16402522799.999998
6501.90831,16402834600.0
6501.9125380000005,16402982200.0
6501.916765,16403294000.0
6501.920993,16403441600.0
6501.925220000001,16403753400.0
6501.929448,16403901000.0
6501.933675,16404048600.0
6501.937903,16404196200.0
6501.942129999999,16404508000.0
6501.946358,16404655600.0
6501.950585,16404803200.0
6501.954813,16404950800.0
6501.959040000001,16405098400.0
6501.9632679999995,16405246000.0
6501.967495,16405229500.0
6501.971723000001,16405377100.0
6501.975950999999,16405524800.0
6501.980178,16405672400.0
6501.9844060000005,16405820000.0
6501.988633,16405803500.0
6501.992861,16405951100.0
6501.997088,16406098700.0
6502.001316,16406082200.0
6502.005544,16406229800.0
6502.009771000001,16406377400.0
6502.013999,16406360900.000002
6502.018227,16406508500.000002
6502.022454,16406492000.0
6502.026682,16406639600.0
6502.030909,16406623000.0
6502.035137000001,16406770700.0
6502.0393650000005,16406754100.0
6502.043592,16406737600.0
6502.04782,16406885200.0
6502.0520480000005,16406868700.0
6502.056275,16407016300.0
6502.060503000001,16406999800.0
6502.064731,16406983300.0
6502.068958,16407130900.0
6502.073186,16407114300.0
6502.077414,16407097799.999998
6502.081641,16407081300.0
6502.0858690000005,16407228900.0
6502.090097,16407212400.0
6502.094325,16407195900.0
6502.0985519999995,16407343500.0
6502.10278,16407327000.0
6502.107008000001,16407310400.0
6502.111236,16407293900.0
6502.115463,16407277400.0
6502.119691,16407425000.0
6502.123919,16407408500.0
6502.128146999999,16407391899.999998
6502.132374000001,16407375400.0
6502.1366020000005,16407358900.0
6502.140829999999,16407506500.0
6502.145058,16407490000.0
6502.149285,16407473500.0
6502.153512999999,16407456900.0
6502.157741,16407440400.0
6502.161969,16407423900.0
6502.1661970000005,16407407400.0
6502.170425,16407555000.0
6502.174652,16407538400.0
6502.17888,16407521900.0
6502.183108,16407505400.0
6502.187335999999,16407488900.0
6502.191564,16407472299.999998
6502.195792,16407455800.0
6502.200019000001,16407439300.0
6502.204247,16407422800.0
6502.208474999999,16407570400.0
6502.212703,16407553800.000002
6502.216931000001,16407537300.0
6502.221159,16407520800.0
6502.2253869999995,16407504300.0
6502.229615,16407487800.0
6502.233842000001,16407471199.999998
6502.238069999999,16407454700.0
6502.242298,16407438200.0
6502.246526,16407421700.0
6502.250754000001,16407405100.000002
6502.2549819999995,16407388600.0
6502.25921,16407372100.0
6502.263438,16407519700.0
6502.267666,16407503200.0
6502.271894,16407486600.0
6502.276121999999,16407470099.999998
6502.28035,16407453600.0
6502.284578,16407437100.0
6502.2888060000005,16407420500.0
6502.293034,16407404000.000002
6502.297262,16407387500.0
6502.30149,16407371000.0
6502.305718,16407354400.0
6502.309946,16407337900.0
6502.314174000001,16407321399.999998
6502.318402,16407304900.0
6502.32263,16407288300.0
6502.326858,16407271800.0
6502.331086,16407255300.000002
6502.335314,16407238800.0
6502.339542,16407222200.0
6502.3437699999995,16407205700.0
6502.347998,16407189200.0
6502.352226000001,16407172699.999998
6502.356454,16407156100.0
6502.3606819999995,16407139600.0
6502.36491,16407123100.0
6502.369138,16407106600.000002
6502.373366000001,16407090000.0
6502.377594,16407073500.0
6502.381823,16407057000.0
6502.3860509999995,16407040500.0
6502.390279,16407023900.0
6502.394507,16407007400.0
6502.398735000001,16406990900.0
6502.4029629999995,16406974400.0
6502.407191,16406957800.0
6502.411419,16406941300.0
6502.415647,16406924800.0
6502.419876,16406908200.000002
6502.424104000001,16406891700.0
6502.4283319999995,16406711100.0
6502.432559999999,16406694600.0
6502.436788,16406677999.999998
6502.441016000001,16406661500.0
6502.445245,16406480900.0
6502.449473000001,16406464300.000002
6502.4537009999995,16406283700.0
6502.457929,16406103100.0
6502.462157,16406086499.999998
6502.466386,16405741800.0
6502.470614,16405561099.999998
6502.4748420000005,16405216400.0
6502.47907,16405035700.0
6502.483297999999,16404526900.0
6502.487526999999,16404018000.0
6502.491755,16403509100.0
6502.495983,16402836200.0
6502.5002110000005,16401999100.0
6502.504440000001,16400997900.0
6502.508668,16399832500.0
6502.512895999999,16398503100.0
6502.517124,16396845500.0
6502.521353,16395023700.0
6502.525581,16392873700.0
6502.529809,16390559700.0
6502.534038,16387753200.0
6502.5382660000005,16384782700.0
6502.542494,16381319900.0
6502.546721999999,16377692900.0
6502.550950999999,16373573600.0
6502.555179,16369290200.0
6502.559407,16364678600.0
6502.563636,16359902900.0
6502.567864000001,16354799000.0
6502.572092,16349695099.999998
6502.5763210000005,16344591200.0
6502.580549,16339487300.0
6502.584777,16334547500.0
6502.589005999999,16329936000.0
6502.593234,16325652700.0
6502.597463,16321861700.0
6502.601691,16318563100.0
6502.605919,16315920900.0
6502.610148,16313935100.000002
6502.614376,16312770000.0
6502.618605,16312261200.0
6502.622833,16312573000.0
6502.627060999999,16313541200.0
6502.63129,16315329999.999998
6502.635517999999,16317939200.0
6502.639746999999,16321040899.999998
6502.643975,16324634800.0
6502.648203999999,16328721000.0
6502.652432,16333299600.0
6502.656660000001,16338042300.0
6502.660889,16342949000.0
6502.6651170000005,16347855800.0
6502.669346000001,16352926600.0
6502.673574,16357669200.0
6502.6778030000005,16362411900.0
6502.682031,16366826200.0
6502.68626,16370912400.0
6502.690487999999,16374834500.0
6502.694717,16378428300.0
6502.698945,16381529800.0
6502.703173999999,16384303100.0
6502.707402,16386748200.0
6502.711631,16388865000.0
6502.715859,16390653700.0
6502.720088,16392278199.999998
6502.724316,16393410400.0
6502.728545,16394378500.0
6502.732773,16395182600.0
6502.737002,16395658400.0
6502.741231,16396134100.0
6502.745459,16396281700.0
6502.749688,16396265200.0
6502.753916000001,16396084600.0
6502.758145,16395739900.0
6502.762374,16395230999.999998
6502.766602000001,16394722200.0
6502.770831,16393885200.0
6502.7750590000005,16393048100.0
6502.779288000001,16392047000.0
6502.783517,16390881799.999998
6502.7877450000005,16389388400.0
6502.791974000001,16387894900.0
6502.7962019999995,16386073300.0
6502.800431,16384087600.0
6502.804660000001,16381937700.0
6502.808888,16379295599.999998
6502.813117,16376489400.0
6502.817346000001,16373355000.0
6502.821574,16369728200.0
6502.825803,16365609200.0
6502.830032000001,16361162000.0
6502.83426,16355894300.0
6502.838489,16350134300.000002
6502.842718000001,16343717900.000002
6502.846946,16336481100.0
6502.851175,16328259600.0
6502.855404,16319217700.0
6502.859633,16309027100.0
6502.863861,16297523700.0
6502.86809,16284871600.0
6502.872319,16270742700.0
6502.876547,16255136900.0
6502.880776,16237890200.0
6502.885005,16218838400.0
6502.889234,16198145700.0
6502.893462,16175483799.999998
6502.897690999999,16150852800.0
6502.90192,16124252700.0
6502.906149,16095683500.0
6502.9103780000005,16065309200.0
6502.914606,16033129900.0
6502.918835,15999145700.0
6502.9230640000005,15963684600.000002
